
& Proton energy: 7.528 MeV. Neutron energy: 0.00115625 MeV  L:0
0.00214705  0.00701121  -0.0485813  0.0490846
0.0113104  0.0368109  -0.255071  0.257713
0.0277865  0.0902995  -0.625801  0.632283
0.051563  0.167416  -1.16083  1.17284
0.082617  0.267446  -1.85657  1.87573
0.120918  0.389375  -2.709  2.73684
0.16643  0.530916  -3.70779  3.74561
0.219107  0.689031  -4.84094  4.88973
0.278898  0.858845  -6.0882  6.14848
0.345744  1.03357  -7.42132  7.49294
0.419581  1.20368  -8.79851  8.88046
0.500336  1.35894  -10.1786  10.269
0.58793  1.48392  -11.4868  11.5822
0.682278  1.56562  -12.6676  12.764
0.783288  1.5868  -13.6296  13.7217
0.89086  1.53307  -14.2932  14.3752
1.00489  1.39092  -14.5639  14.6302
1.12527  1.153  -14.3683  14.4145
1.25187  0.817799  -13.6385  13.663
1.38458  0.392438  -12.3231  12.3293
1.52327  -0.104618  -10.4166  10.4171
1.66779  -0.643851  -7.94319  7.96924
1.81801  -1.18498  -4.9847  5.12361
1.97379  -1.6788  -1.66841  2.36685
2.13496  -2.06958  1.82745  2.76093
2.30138  -2.30287  5.28113  5.76139
2.47288  -2.32846  8.44034  8.75563
2.64929  -2.11106  11.0464  11.2463
2.83043  -1.63759  12.8721  12.9759
3.01614  -0.917032  13.7126  13.7432
3.20624  0.00808609  13.4673  13.4673
3.40052  1.06947  12.1209  12.168
3.59881  2.17497  9.75556  9.99507
3.80092  3.22359  6.57519  7.32289
4.00664  4.11299  2.83738  4.99674
4.21577  4.76483  -1.15016  4.90168
4.42811  5.13038  -5.09481  7.23034
4.64345  5.20389  -8.75464  10.1845
4.86159  5.01617  -11.9625  12.9716
5.0823  4.62786  -14.6356  15.3499
5.30537  4.11252  -16.7651  17.2621
5.53059  3.54143  -18.3955  18.7333
5.75773  2.97082  -19.5963  19.8202
5.98658  2.43973  -20.4534  20.5984
6.2169  1.96757  -21.0466  21.1384
6.44848  1.55884  -21.4475  21.5041
6.68108  1.20788  -21.7148  21.7484
6.91449  0.903583  -21.8931  21.9117
7.14846  0.633604  -22.0156  22.0247
7.38278  0.386946  -22.1047  22.1081
7.61722  0.15533  -22.1742  22.1747
7.85154  -0.066232  -22.2318  22.2319
8.08551  -0.279895  -22.2806  22.2824
8.31892  -0.485481  -22.321  22.3263
8.55152  -0.681335  -22.3519  22.3623
8.7831  -0.865043  -22.3716  22.3883
9.01342  -1.03411  -22.3787  22.4026
9.24227  -1.18639  -22.3725  22.404
9.46941  -1.32029  -22.3531  22.3921
9.69463  -1.43492  -22.3214  22.3675
9.9177  -1.53012  -22.2792  22.3317
10.1384  -1.60636  -22.2286  22.2866
10.3565  -1.66462  -22.1722  22.2346
10.5719  -1.70632  -22.1126  22.1783
10.7842  -1.73315  -22.0522  22.1202
10.9934  -1.74694  -21.9931  22.0624
11.1991  -1.74959  -21.9372  22.0068
11.4012  -1.74298  -21.8857  21.955
11.5995  -1.72889  -21.8396  21.9079
11.7938  -1.70899  -21.7993  21.8662
11.9839  -1.68476  -21.7652  21.8303
12.1696  -1.65747  -21.737  21.8001
12.3507  -1.62822  -21.7144  21.7753
12.5271  -1.5979  -21.6969  21.7557
12.6986  -1.56725  -21.6841  21.7406
12.865  -1.53682  -21.6752  21.7296
13.0262  -1.50706  -21.6696  21.722
13.182  -1.47828  -21.6668  21.7172
13.3322  -1.45069  -21.6662  21.7147
13.4767  -1.42441  -21.6671  21.7139
13.6154  -1.39953  -21.6693  21.7144
13.7481  -1.37609  -21.6722  21.7158
13.8747  -1.35408  -21.6755  21.7178
13.9951  -1.3335  -21.6791  21.7201
14.1091  -1.3143  -21.6826  21.7224
14.2167  -1.29644  -21.6859  21.7247
14.3177  -1.27988  -21.689  21.7267
14.4121  -1.26458  -21.6917  21.7285
14.4997  -1.2505  -21.694  21.73
14.5804  -1.2376  -21.6959  21.7311
14.6543  -1.22587  -21.6974  21.732
14.7211  -1.21529  -21.6986  21.7326
14.7809  -1.20589  -21.6996  21.7331
14.8336  -1.19764  -21.7004  21.7335
14.8791  -1.19051  -21.7011  21.7337
14.9174  -1.18451  -21.7016  21.7339
14.9484  -1.17963  -21.702  21.734
14.9722  -1.17589  -21.7022  21.734
14.9887  -1.17329  -21.7024  21.7341
14.9979  -1.17184  -21.7025  21.7341
0.00214705  0.00701121  -0.0485813  0.0490846
0.0113104  0.0368109  -0.255071  0.257713
0.0277865  0.0902995  -0.625801  0.632283
0.051563  0.167416  -1.16083  1.17284
0.082617  0.267446  -1.85657  1.87573
0.120918  0.389375  -2.709  2.73684
0.16643  0.530916  -3.70779  3.74561
0.219107  0.689031  -4.84094  4.88973
0.278898  0.858845  -6.0882  6.14848
0.345744  1.03357  -7.42132  7.49294
0.419581  1.20368  -8.79851  8.88046
0.500336  1.35894  -10.1786  10.269
0.58793  1.48392  -11.4868  11.5822
0.682278  1.56562  -12.6676  12.764
0.783288  1.5868  -13.6296  13.7217
0.89086  1.53307  -14.2932  14.3752
1.00489  1.39092  -14.5639  14.6302
1.12527  1.153  -14.3683  14.4145
1.25187  0.817799  -13.6385  13.663
1.38458  0.392438  -12.3231  12.3293
1.52327  -0.104618  -10.4166  10.4171
1.66779  -0.643851  -7.94319  7.96924
1.81801  -1.18498  -4.9847  5.12361
1.97379  -1.6788  -1.66841  2.36685
2.13496  -2.06958  1.82745  2.76093
2.30138  -2.30287  5.28113  5.76139
2.47288  -2.32846  8.44034  8.75563
2.64929  -2.11106  11.0464  11.2463
2.83043  -1.63759  12.8721  12.9759
3.01614  -0.917032  13.7126  13.7432
3.20624  0.00808609  13.4673  13.4673
3.40052  1.06947  12.1209  12.168
3.59881  2.17497  9.75556  9.99507
3.80092  3.22359  6.57519  7.32289
4.00664  4.11299  2.83738  4.99674
4.21577  4.76483  -1.15016  4.90168
4.42811  5.13038  -5.09481  7.23034
4.64345  5.20389  -8.75464  10.1845
4.86159  5.01617  -11.9625  12.9716
5.0823  4.62786  -14.6356  15.3499
5.30537  4.11252  -16.7651  17.2621
5.53059  3.54143  -18.3955  18.7333
5.75773  2.97082  -19.5963  19.8202
5.98658  2.43973  -20.4534  20.5984
6.2169  1.96757  -21.0466  21.1384
6.44848  1.55884  -21.4475  21.5041
6.68108  1.20788  -21.7148  21.7484
6.91449  0.903583  -21.8931  21.9117
7.14846  0.633604  -22.0156  22.0247
7.38278  0.386946  -22.1047  22.1081
7.61722  0.15533  -22.1742  22.1747
7.85154  -0.066232  -22.2318  22.2319
8.08551  -0.279895  -22.2806  22.2824
8.31892  -0.485481  -22.321  22.3263
8.55152  -0.681335  -22.3519  22.3623
8.7831  -0.865043  -22.3716  22.3883
9.01342  -1.03411  -22.3787  22.4026
9.24227  -1.18639  -22.3725  22.404
9.46941  -1.32029  -22.3531  22.3921
9.69463  -1.43492  -22.3214  22.3675
9.9177  -1.53012  -22.2792  22.3317
10.1384  -1.60636  -22.2286  22.2866
10.3565  -1.66462  -22.1722  22.2346
10.5719  -1.70632  -22.1126  22.1783
10.7842  -1.73315  -22.0522  22.1202
10.9934  -1.74694  -21.9931  22.0624
11.1991  -1.74959  -21.9372  22.0068
11.4012  -1.74298  -21.8857  21.955
11.5995  -1.72889  -21.8396  21.9079
11.7938  -1.70899  -21.7993  21.8662
11.9839  -1.68476  -21.7652  21.8303
12.1696  -1.65747  -21.737  21.8001
12.3507  -1.62822  -21.7144  21.7753
12.5271  -1.5979  -21.6969  21.7557
12.6986  -1.56725  -21.6841  21.7406
12.865  -1.53682  -21.6752  21.7296
13.0262  -1.50706  -21.6696  21.722
13.182  -1.47828  -21.6668  21.7172
13.3322  -1.45069  -21.6662  21.7147
13.4767  -1.42441  -21.6671  21.7139
13.6154  -1.39953  -21.6693  21.7144
13.7481  -1.37609  -21.6722  21.7158
13.8747  -1.35408  -21.6755  21.7178
13.9951  -1.3335  -21.6791  21.7201
14.1091  -1.3143  -21.6826  21.7224
14.2167  -1.29644  -21.6859  21.7247
14.3177  -1.27988  -21.689  21.7267
14.4121  -1.26458  -21.6917  21.7285
14.4997  -1.2505  -21.694  21.73
14.5804  -1.2376  -21.6959  21.7311
14.6543  -1.22587  -21.6974  21.732
14.7211  -1.21529  -21.6986  21.7326
14.7809  -1.20589  -21.6996  21.7331
14.8336  -1.19764  -21.7004  21.7335
14.8791  -1.19051  -21.7011  21.7337
14.9174  -1.18451  -21.7016  21.7339
14.9484  -1.17963  -21.702  21.734
14.9722  -1.17589  -21.7022  21.734
14.9887  -1.17329  -21.7024  21.7341
14.9979  -1.17184  -21.7025  21.7341
0.00214705  0.00701121  -0.0485813  0.0490846
0.0113104  0.0368109  -0.255071  0.257713
0.0277865  0.0902995  -0.625801  0.632283
0.051563  0.167416  -1.16083  1.17284
0.082617  0.267446  -1.85657  1.87573
0.120918  0.389375  -2.709  2.73684
0.16643  0.530916  -3.70779  3.74561
0.219107  0.689031  -4.84094  4.88973
0.278898  0.858845  -6.0882  6.14848
0.345744  1.03357  -7.42132  7.49294
0.419581  1.20368  -8.79851  8.88046
0.500336  1.35894  -10.1786  10.269
0.58793  1.48392  -11.4868  11.5822
0.682278  1.56562  -12.6676  12.764
0.783288  1.5868  -13.6296  13.7217
0.89086  1.53307  -14.2932  14.3752
1.00489  1.39092  -14.5639  14.6302
1.12527  1.153  -14.3683  14.4145
1.25187  0.817799  -13.6385  13.663
1.38458  0.392438  -12.3231  12.3293
1.52327  -0.104618  -10.4166  10.4171
1.66779  -0.643851  -7.94319  7.96924
1.81801  -1.18498  -4.9847  5.12361
1.97379  -1.6788  -1.66841  2.36685
2.13496  -2.06958  1.82745  2.76093
2.30138  -2.30287  5.28113  5.76139
2.47288  -2.32846  8.44034  8.75563
2.64929  -2.11106  11.0464  11.2463
2.83043  -1.63759  12.8721  12.9759
3.01614  -0.917032  13.7126  13.7432
3.20624  0.00808609  13.4673  13.4673
3.40052  1.06947  12.1209  12.168
3.59881  2.17497  9.75556  9.99507
3.80092  3.22359  6.57519  7.32289
4.00664  4.11299  2.83738  4.99674
4.21577  4.76483  -1.15016  4.90168
4.42811  5.13038  -5.09481  7.23034
4.64345  5.20389  -8.75464  10.1845
4.86159  5.01617  -11.9625  12.9716
5.0823  4.62786  -14.6356  15.3499
5.30537  4.11252  -16.7651  17.2621
5.53059  3.54143  -18.3955  18.7333
5.75773  2.97082  -19.5963  19.8202
5.98658  2.43973  -20.4534  20.5984
6.2169  1.96757  -21.0466  21.1384
6.44848  1.55884  -21.4475  21.5041
6.68108  1.20788  -21.7148  21.7484
6.91449  0.903583  -21.8931  21.9117
7.14846  0.633604  -22.0156  22.0247
7.38278  0.386946  -22.1047  22.1081
7.61722  0.15533  -22.1742  22.1747
7.85154  -0.066232  -22.2318  22.2319
8.08551  -0.279895  -22.2806  22.2824
8.31892  -0.485481  -22.321  22.3263
8.55152  -0.681335  -22.3519  22.3623
8.7831  -0.865043  -22.3716  22.3883
9.01342  -1.03411  -22.3787  22.4026
9.24227  -1.18639  -22.3725  22.404
9.46941  -1.32029  -22.3531  22.3921
9.69463  -1.43492  -22.3214  22.3675
9.9177  -1.53012  -22.2792  22.3317
10.1384  -1.60636  -22.2286  22.2866
10.3565  -1.66462  -22.1722  22.2346
10.5719  -1.70632  -22.1126  22.1783
10.7842  -1.73315  -22.0522  22.1202
10.9934  -1.74694  -21.9931  22.0624
11.1991  -1.74959  -21.9372  22.0068
11.4012  -1.74298  -21.8857  21.955
11.5995  -1.72889  -21.8396  21.9079
11.7938  -1.70899  -21.7993  21.8662
11.9839  -1.68476  -21.7652  21.8303
12.1696  -1.65747  -21.737  21.8001
12.3507  -1.62822  -21.7144  21.7753
12.5271  -1.5979  -21.6969  21.7557
12.6986  -1.56725  -21.6841  21.7406
12.865  -1.53682  -21.6752  21.7296
13.0262  -1.50706  -21.6696  21.722
13.182  -1.47828  -21.6668  21.7172
13.3322  -1.45069  -21.6662  21.7147
13.4767  -1.42441  -21.6671  21.7139
13.6154  -1.39953  -21.6693  21.7144
13.7481  -1.37609  -21.6722  21.7158
13.8747  -1.35408  -21.6755  21.7178
13.9951  -1.3335  -21.6791  21.7201
14.1091  -1.3143  -21.6826  21.7224
14.2167  -1.29644  -21.6859  21.7247
14.3177  -1.27988  -21.689  21.7267
14.4121  -1.26458  -21.6917  21.7285
14.4997  -1.2505  -21.694  21.73
14.5804  -1.2376  -21.6959  21.7311
14.6543  -1.22587  -21.6974  21.732
14.7211  -1.21529  -21.6986  21.7326
14.7809  -1.20589  -21.6996  21.7331
14.8336  -1.19764  -21.7004  21.7335
14.8791  -1.19051  -21.7011  21.7337
14.9174  -1.18451  -21.7016  21.7339
14.9484  -1.17963  -21.702  21.734
14.9722  -1.17589  -21.7022  21.734
14.9887  -1.17329  -21.7024  21.7341
14.9979  -1.17184  -21.7025  21.7341
0.00214705  0.00701121  -0.0485813  0.0490846
0.0113104  0.0368109  -0.255071  0.257713
0.0277865  0.0902995  -0.625801  0.632283
0.051563  0.167416  -1.16083  1.17284
0.082617  0.267446  -1.85657  1.87573
0.120918  0.389375  -2.709  2.73684
0.16643  0.530916  -3.70779  3.74561
0.219107  0.689031  -4.84094  4.88973
0.278898  0.858845  -6.0882  6.14848
0.345744  1.03357  -7.42132  7.49294
0.419581  1.20368  -8.79851  8.88046
0.500336  1.35894  -10.1786  10.269
0.58793  1.48392  -11.4868  11.5822
0.682278  1.56562  -12.6676  12.764
0.783288  1.5868  -13.6296  13.7217
0.89086  1.53307  -14.2932  14.3752
1.00489  1.39092  -14.5639  14.6302
1.12527  1.153  -14.3683  14.4145
1.25187  0.817799  -13.6385  13.663
1.38458  0.392438  -12.3231  12.3293
1.52327  -0.104618  -10.4166  10.4171
1.66779  -0.643851  -7.94319  7.96924
1.81801  -1.18498  -4.9847  5.12361
1.97379  -1.6788  -1.66841  2.36685
2.13496  -2.06958  1.82745  2.76093
2.30138  -2.30287  5.28113  5.76139
2.47288  -2.32846  8.44034  8.75563
2.64929  -2.11106  11.0464  11.2463
2.83043  -1.63759  12.8721  12.9759
3.01614  -0.917032  13.7126  13.7432
3.20624  0.00808609  13.4673  13.4673
3.40052  1.06947  12.1209  12.168
3.59881  2.17497  9.75556  9.99507
3.80092  3.22359  6.57519  7.32289
4.00664  4.11299  2.83738  4.99674
4.21577  4.76483  -1.15016  4.90168
4.42811  5.13038  -5.09481  7.23034
4.64345  5.20389  -8.75464  10.1845
4.86159  5.01617  -11.9625  12.9716
5.0823  4.62786  -14.6356  15.3499
5.30537  4.11252  -16.7651  17.2621
5.53059  3.54143  -18.3955  18.7333
5.75773  2.97082  -19.5963  19.8202
5.98658  2.43973  -20.4534  20.5984
6.2169  1.96757  -21.0466  21.1384
6.44848  1.55884  -21.4475  21.5041
6.68108  1.20788  -21.7148  21.7484
6.91449  0.903583  -21.8931  21.9117
7.14846  0.633604  -22.0156  22.0247
7.38278  0.386946  -22.1047  22.1081
7.61722  0.15533  -22.1742  22.1747
7.85154  -0.066232  -22.2318  22.2319
8.08551  -0.279895  -22.2806  22.2824
8.31892  -0.485481  -22.321  22.3263
8.55152  -0.681335  -22.3519  22.3623
8.7831  -0.865043  -22.3716  22.3883
9.01342  -1.03411  -22.3787  22.4026
9.24227  -1.18639  -22.3725  22.404
9.46941  -1.32029  -22.3531  22.3921
9.69463  -1.43492  -22.3214  22.3675
9.9177  -1.53012  -22.2792  22.3317
10.1384  -1.60636  -22.2286  22.2866
10.3565  -1.66462  -22.1722  22.2346
10.5719  -1.70632  -22.1126  22.1783
10.7842  -1.73315  -22.0522  22.1202
10.9934  -1.74694  -21.9931  22.0624
11.1991  -1.74959  -21.9372  22.0068
11.4012  -1.74298  -21.8857  21.955
11.5995  -1.72889  -21.8396  21.9079
11.7938  -1.70899  -21.7993  21.8662
11.9839  -1.68476  -21.7652  21.8303
12.1696  -1.65747  -21.737  21.8001
12.3507  -1.62822  -21.7144  21.7753
12.5271  -1.5979  -21.6969  21.7557
12.6986  -1.56725  -21.6841  21.7406
12.865  -1.53682  -21.6752  21.7296
13.0262  -1.50706  -21.6696  21.722
13.182  -1.47828  -21.6668  21.7172
13.3322  -1.45069  -21.6662  21.7147
13.4767  -1.42441  -21.6671  21.7139
13.6154  -1.39953  -21.6693  21.7144
13.7481  -1.37609  -21.6722  21.7158
13.8747  -1.35408  -21.6755  21.7178
13.9951  -1.3335  -21.6791  21.7201
14.1091  -1.3143  -21.6826  21.7224
14.2167  -1.29644  -21.6859  21.7247
14.3177  -1.27988  -21.689  21.7267
14.4121  -1.26458  -21.6917  21.7285
14.4997  -1.2505  -21.694  21.73
14.5804  -1.2376  -21.6959  21.7311
14.6543  -1.22587  -21.6974  21.732
14.7211  -1.21529  -21.6986  21.7326
14.7809  -1.20589  -21.6996  21.7331
14.8336  -1.19764  -21.7004  21.7335
14.8791  -1.19051  -21.7011  21.7337
14.9174  -1.18451  -21.7016  21.7339
14.9484  -1.17963  -21.702  21.734
14.9722  -1.17589  -21.7022  21.734
14.9887  -1.17329  -21.7024  21.7341
14.9979  -1.17184  -21.7025  21.7341
0.00214705  0.00701121  -0.0485813  0.0490846
0.0113104  0.0368109  -0.255071  0.257713
0.0277865  0.0902995  -0.625801  0.632283
0.051563  0.167416  -1.16083  1.17284
0.082617  0.267446  -1.85657  1.87573
0.120918  0.389375  -2.709  2.73684
0.16643  0.530916  -3.70779  3.74561
0.219107  0.689031  -4.84094  4.88973
0.278898  0.858845  -6.0882  6.14848
0.345744  1.03357  -7.42132  7.49294
0.419581  1.20368  -8.79851  8.88046
0.500336  1.35894  -10.1786  10.269
0.58793  1.48392  -11.4868  11.5822
0.682278  1.56562  -12.6676  12.764
0.783288  1.5868  -13.6296  13.7217
0.89086  1.53307  -14.2932  14.3752
1.00489  1.39092  -14.5639  14.6302
1.12527  1.153  -14.3683  14.4145
1.25187  0.817799  -13.6385  13.663
1.38458  0.392438  -12.3231  12.3293
1.52327  -0.104618  -10.4166  10.4171
1.66779  -0.643851  -7.94319  7.96924
1.81801  -1.18498  -4.9847  5.12361
1.97379  -1.6788  -1.66841  2.36685
2.13496  -2.06958  1.82745  2.76093
2.30138  -2.30287  5.28113  5.76139
2.47288  -2.32846  8.44034  8.75563
2.64929  -2.11106  11.0464  11.2463
2.83043  -1.63759  12.8721  12.9759
3.01614  -0.917032  13.7126  13.7432
3.20624  0.00808609  13.4673  13.4673
3.40052  1.06947  12.1209  12.168
3.59881  2.17497  9.75556  9.99507
3.80092  3.22359  6.57519  7.32289
4.00664  4.11299  2.83738  4.99674
4.21577  4.76483  -1.15016  4.90168
4.42811  5.13038  -5.09481  7.23034
4.64345  5.20389  -8.75464  10.1845
4.86159  5.01617  -11.9625  12.9716
5.0823  4.62786  -14.6356  15.3499
5.30537  4.11252  -16.7651  17.2621
5.53059  3.54143  -18.3955  18.7333
5.75773  2.97082  -19.5963  19.8202
5.98658  2.43973  -20.4534  20.5984
6.2169  1.96757  -21.0466  21.1384
6.44848  1.55884  -21.4475  21.5041
6.68108  1.20788  -21.7148  21.7484
6.91449  0.903583  -21.8931  21.9117
7.14846  0.633604  -22.0156  22.0247
7.38278  0.386946  -22.1047  22.1081
7.61722  0.15533  -22.1742  22.1747
7.85154  -0.066232  -22.2318  22.2319
8.08551  -0.279895  -22.2806  22.2824
8.31892  -0.485481  -22.321  22.3263
8.55152  -0.681335  -22.3519  22.3623
8.7831  -0.865043  -22.3716  22.3883
9.01342  -1.03411  -22.3787  22.4026
9.24227  -1.18639  -22.3725  22.404
9.46941  -1.32029  -22.3531  22.3921
9.69463  -1.43492  -22.3214  22.3675
9.9177  -1.53012  -22.2792  22.3317
10.1384  -1.60636  -22.2286  22.2866
10.3565  -1.66462  -22.1722  22.2346
10.5719  -1.70632  -22.1126  22.1783
10.7842  -1.73315  -22.0522  22.1202
10.9934  -1.74694  -21.9931  22.0624
11.1991  -1.74959  -21.9372  22.0068
11.4012  -1.74298  -21.8857  21.955
11.5995  -1.72889  -21.8396  21.9079
11.7938  -1.70899  -21.7993  21.8662
11.9839  -1.68476  -21.7652  21.8303
12.1696  -1.65747  -21.737  21.8001
12.3507  -1.62822  -21.7144  21.7753
12.5271  -1.5979  -21.6969  21.7557
12.6986  -1.56725  -21.6841  21.7406
12.865  -1.53682  -21.6752  21.7296
13.0262  -1.50706  -21.6696  21.722
13.182  -1.47828  -21.6668  21.7172
13.3322  -1.45069  -21.6662  21.7147
13.4767  -1.42441  -21.6671  21.7139
13.6154  -1.39953  -21.6693  21.7144
13.7481  -1.37609  -21.6722  21.7158
13.8747  -1.35408  -21.6755  21.7178
13.9951  -1.3335  -21.6791  21.7201
14.1091  -1.3143  -21.6826  21.7224
14.2167  -1.29644  -21.6859  21.7247
14.3177  -1.27988  -21.689  21.7267
14.4121  -1.26458  -21.6917  21.7285
14.4997  -1.2505  -21.694  21.73
14.5804  -1.2376  -21.6959  21.7311
14.6543  -1.22587  -21.6974  21.732
14.7211  -1.21529  -21.6986  21.7326
14.7809  -1.20589  -21.6996  21.7331
14.8336  -1.19764  -21.7004  21.7335
14.8791  -1.19051  -21.7011  21.7337
14.9174  -1.18451  -21.7016  21.7339
14.9484  -1.17963  -21.702  21.734
14.9722  -1.17589  -21.7022  21.734
14.9887  -1.17329  -21.7024  21.7341
14.9979  -1.17184  -21.7025  21.7341
0.00214705  0.00701121  -0.0485813  0.0490846
0.0113104  0.0368109  -0.255071  0.257713
0.0277865  0.0902995  -0.625801  0.632283
0.051563  0.167416  -1.16083  1.17284
0.082617  0.267446  -1.85657  1.87573
0.120918  0.389375  -2.709  2.73684
0.16643  0.530916  -3.70779  3.74561
0.219107  0.689031  -4.84094  4.88973
0.278898  0.858845  -6.0882  6.14848
0.345744  1.03357  -7.42132  7.49294
0.419581  1.20368  -8.79851  8.88046
0.500336  1.35894  -10.1786  10.269
0.58793  1.48392  -11.4868  11.5822
0.682278  1.56562  -12.6676  12.764
0.783288  1.5868  -13.6296  13.7217
0.89086  1.53307  -14.2932  14.3752
1.00489  1.39092  -14.5639  14.6302
1.12527  1.153  -14.3683  14.4145
1.25187  0.817799  -13.6385  13.663
1.38458  0.392438  -12.3231  12.3293
1.52327  -0.104618  -10.4166  10.4171
1.66779  -0.643851  -7.94319  7.96924
1.81801  -1.18498  -4.9847  5.12361
1.97379  -1.6788  -1.66841  2.36685
2.13496  -2.06958  1.82745  2.76093
2.30138  -2.30287  5.28113  5.76139
2.47288  -2.32846  8.44034  8.75563
2.64929  -2.11106  11.0464  11.2463
2.83043  -1.63759  12.8721  12.9759
3.01614  -0.917032  13.7126  13.7432
3.20624  0.00808609  13.4673  13.4673
3.40052  1.06947  12.1209  12.168
3.59881  2.17497  9.75556  9.99507
3.80092  3.22359  6.57519  7.32289
4.00664  4.11299  2.83738  4.99674
4.21577  4.76483  -1.15016  4.90168
4.42811  5.13038  -5.09481  7.23034
4.64345  5.20389  -8.75464  10.1845
4.86159  5.01617  -11.9625  12.9716
5.0823  4.62786  -14.6356  15.3499
5.30537  4.11252  -16.7651  17.2621
5.53059  3.54143  -18.3955  18.7333
5.75773  2.97082  -19.5963  19.8202
